Date,atr
2010-01-04,
2010-01-05,0.06570000000000009
2010-01-06,0.06129259259259271
2010-01-07,0.06323016453382091
2010-01-08,0.06060445459157795
2010-01-11,0.05965762350553356
2010-01-12,0.05944716373499807
2010-01-13,0.058238773214673696
2010-01-14,0.05880751293671646
2010-01-15,0.059261332560618746
2010-01-18,0.058297671927621454
2010-01-19,0.05961777029199109
2010-01-20,0.060743329896722986
2010-01-21,0.061084836924665174
2010-01-22,0.06291187582589851
2010-01-25,0.06215478112206903
2010-01-26,0.06219028772655268
2010-01-27,0.06399616810023866
2010-01-28,0.06407412003856072
2010-01-29,0.06301749838008741
2010-02-01,0.06423585016220616
2010-02-02,0.06339075456313063
2010-02-03,0.06400447244798252
2010-02-04,0.06740904421666949
2010-02-05,0.06703871581268654
2010-02-08,0.06591722923476115
2010-02-09,0.0648958436395923
2010-02-10,0.06463187789656566
2010-02-11,0.06427803137305034
2010-02-12,0.06445768885834909
2010-02-15,0.06312340747209848
2010-02-16,0.06224802305710756
2010-02-17,0.06241756120002279
2010-02-18,0.061892198359727174
2010-02-19,0.061317966522735114
2010-02-22,0.0614169371148541
2010-02-23,0.061315855225327225
2010-02-24,0.06031447801434201
2010-02-25,0.06068565458806824
2010-02-26,0.060747244319642124
2010-03-01,0.06085665783866012
2010-03-02,0.061205014996945105
2010-03-03,0.06095795110835074
2010-03-04,0.06029797655124269
2010-03-05,0.05955534846160888
2010-03-08,0.059588282379322746
2010-03-09,0.05961869674692265
2010-03-10,0.05935202826318819
2010-03-11,0.05893646035274051
2010-03-12,0.05863296165129217
2010-03-15,0.05816920323644986
2010-03-16,0.05776210739704252
2010-03-17,0.05713728011017885
2010-03-18,0.058497104378673434
2010-03-19,0.05851914268771068
2010-03-22,0.05886652983566007
2010-03-23,0.05910119111662815
2010-03-24,0.05964477717601516
2010-03-25,0.059786360370080026
2010-03-26,0.05925201912599067
2010-03-28,0.05863391659905779
2010-03-29,0.05899253960754197
2010-03-30,0.0586827996170225
2010-03-31,0.05807835642191954
2010-04-01,0.05732332360070069
2010-04-04,0.0565943308675009
2010-04-05,0.0565443603794132
2010-04-06,0.057699248647684484
2010-04-07,0.0589358846833465
2010-04-08,0.05813565070630459
2010-04-11,0.05800379630883332
2010-04-12,0.05820456646976241
2010-04-13,0.057486496222807326
2010-04-14,0.05735831610673083
2010-04-15,0.05766972960018971
2010-04-18,0.057542831008857834
2010-04-19,0.057389221626872634
2010-04-20,0.05687399270862562
2010-04-21,0.05742755946136019
2010-04-22,0.05686684055560041
2010-04-25,0.05688353925533628
2010-04-26,0.05772966374775525
2010-04-27,0.05701161098519355
2010-04-28,0.056939198715923435
2010-04-29,0.056585699166305264
2010-05-02,0.05690158691211211
2010-05-03,0.05867593012562661
2010-05-04,0.05990101930775548
2010-05-05,0.06257631165174408
2010-05-06,0.06256370073135437
2010-05-09,0.06342452857486644
2010-05-10,0.06365161550066435
2010-05-11,0.06247521314786214
2010-05-12,0.06139731724112777
2010-05-13,0.06349949180203973
2010-05-16,0.06388558056318511
2010-05-17,0.06402243611832442
2010-05-18,0.0654719282547238
2010-05-19,0.06910505270165097
2010-05-20,0.06896174132674573
2010-05-23,0.06859996961566536
2010-05-24,0.07009366763489906
2010-05-25,0.07040856984769074
2010-05-26,0.06927169301402422
2010-05-27,0.06869488419970717
2010-05-30,0.06965279235339644
2010-05-31,0.0662834296720794
2010-06-01,0.06492698216021457
2010-06-02,0.06482502078381762
2010-06-03,0.06225100613542508
2010-06-06,0.06364062046130828
2010-06-07,0.06247312085250736
2010-06-08,0.06202492941884587
2010-06-09,0.060980050503472556
2010-06-10,0.06097433138497495
2010-06-13,0.06056894134474121
2010-06-14,0.05964956139626137
2010-06-15,0.05972460559897204
2010-06-16,0.059137040173114976
2010-06-17,0.05881291793133914
2010-06-20,0.05825477570233253
2010-06-21,0.05775079887394009
2010-06-22,0.058361528427080124
2010-06-23,0.058742889764390745
2010-06-24,0.0588112617631829
2010-06-27,0.05863901244686812
2010-06-28,0.05996491401786896
2010-06-29,0.05913163774438824
2010-06-30,0.056200583949109664
2010-07-01,0.05638626961461263
2010-07-04,0.05618009400255643
2010-07-05,0.055717202007689454
2010-07-06,0.055494532152932534
2010-07-07,0.05553778212314523
2010-07-08,0.05546365122075792
2010-07-11,0.055337670440156424
2010-07-12,0.05489210385355137
2010-07-13,0.05554983635110009
2010-07-14,0.05598914965059995
2010-07-15,0.05726853909059757
2010-07-18,0.057235070968517016
2010-07-19,0.05700398777611385
2010-07-20,0.05670369485666144
2010-07-21,0.05613198808573568
2010-07-22,0.0561511322379575
2010-07-25,0.056333198142436286
2010-07-26,0.0562951117990959
2010-07-27,0.055866881574770766
2010-07-28,0.05541923945691944
2010-07-29,0.05551786678935055
2010-08-01,0.05544516093758018
2010-08-02,0.05568479560792023
2010-08-03,0.0552930194700349
2010-08-04,0.055157802183789996
2010-08-05,0.05518224515516491
2010-08-08,0.054847795639409294
2010-08-09,0.05546581612763835
2010-08-10,0.056375408740983415
2010-08-11,0.05611287738744849
2010-08-12,0.055869098570695185
2010-08-15,0.05528558739469964
2010-08-16,0.05487947133687365
2010-08-17,0.05467379355600402
2010-08-18,0.05489709528332469
2010-08-19,0.054961588817176624
2010-08-22,0.054842903321000024
2010-08-23,0.05559698508100634
2010-08-24,0.055247198956790866
2010-08-25,0.054772397171423175
2010-08-26,0.05461722538047439
2010-08-29,0.054787424142440894
2010-08-30,0.05555261053212915
2010-08-31,0.055313137653848564
2010-09-01,0.05530505637100542
2010-09-02,0.05595469683296413
2010-09-05,0.056029361518994014
2010-09-06,0.05588440681092588
2010-09-07,0.055356948121101326
2010-09-08,0.055281451685790926
2010-09-09,0.05488991874376993
2010-09-12,0.05464063843222301
2010-09-13,0.0545234497976093
2010-09-14,0.054821775226139714
2010-09-15,0.054305933473714804
2010-09-16,0.05470551013237344
2010-09-19,0.05424797318588331
2010-09-20,0.055094547403351415
2010-09-21,0.055794937545666855
2010-09-22,0.055795299149869526
2010-09-23,0.055252777333780215
2010-09-26,0.05538472191116701
2010-09-27,0.055107241576977384
2010-09-28,0.05494958136004129
2010-09-29,0.05520318284724555
2010-09-30,0.055967241651110465
2010-10-03,0.05601958156089569
2010-10-04,0.05659675459040854
2010-10-05,0.05854698729602267
2010-10-06,0.05806505942765217
2010-10-07,0.057881840824958716
2010-10-10,0.0581402808605312
2010-10-11,0.05744454627712737
2010-10-12,0.05772707877498032
2010-10-13,0.05839657334419612
2010-10-14,0.057939675123975694
2010-10-17,0.0580296983521305
2010-10-18,0.06034900615633538
2010-10-19,0.059431219802549756
2010-10-20,0.06013613281626553
2010-10-21,0.0595549803631801
2010-10-24,0.058936767372361365
2010-10-25,0.05917699831320969
2010-10-26,0.059364355604704405
2010-10-27,0.05853118723097492
2010-10-28,0.058957531055428974
2010-11-01,0.059196278865907226
2010-11-02,0.058932258917419066
2010-11-03,0.05831566893078455
2010-11-04,0.0585145497406
2010-11-05,0.059263510540404817
2010-11-08,0.059980402704203614
2010-11-09,0.05920323102253683
2010-11-10,0.059481571683717385
2010-11-11,0.05961860228684999
2010-11-12,0.059274416387964664
2010-11-15,0.05869052946963084
2010-11-16,0.058748348796307095
2010-11-17,0.05799489527360599
2010-11-18,0.05822383133600136
2010-11-19,0.05872927197640495
2010-11-22,0.05832003824760537
2010-11-23,0.058490035521882124
2010-11-24,0.057712175815198274
2010-11-25,0.05801130612359314
2010-11-26,0.058410498555084546
2010-11-29,0.05810260579273601
2010-11-30,0.058330991099050274
2010-12-01,0.05795734886888543
2010-12-02,0.05804610966590711
2010-12-03,0.05817853040674701
2010-12-06,0.05879434967502588
2010-12-07,0.058366181833594696
2010-12-08,0.05834716884517151
2010-12-09,0.05862951393192409
2010-12-10,0.05855597722146951
2010-12-13,0.05793769312616899
2010-12-14,0.05819214362023424
2010-12-15,0.05777127621406256
2010-12-16,0.05711618504908399
2010-12-17,0.05722217183231855
2010-12-20,0.05652058812370182
2010-12-21,0.05589054610960562
2010-12-22,0.05636264996257964
2010-12-23,0.05591531781917502
2010-12-24,0.05577136654541452
2010-12-27,0.05545198321875953
2010-12-28,0.0554268415601318
2010-12-29,0.05486063858852049
2010-12-30,0.05545630726372946
2010-12-31,0.05551657103088404
2011-01-03,0.055293958813438356
2011-01-04,0.05625153318771744
2011-01-05,0.05627642367440101
2011-01-06,0.05703525055740452
2011-01-07,0.05654701837317727
2011-01-10,0.05685794563315588
2011-01-11,0.05661809237298585
2011-01-12,0.05654537148901565
2011-01-13,0.055999273524221
2011-01-14,0.056620753988143584
2011-01-17,0.056012128702033134
2011-01-18,0.05538269093640846
2011-01-19,0.055562498726981636
2011-01-20,0.05525089167454483
2011-01-21,0.054875827982936394
2011-01-24,0.05448469741217516
2011-01-25,0.054357219025424314
2011-01-26,0.053960274808840004
2011-01-27,0.05402025517970485
2011-01-28,0.054568808381729526
2011-01-31,0.054142464925476703
2011-02-01,0.05370371743040323
2011-02-02,0.05377488047114844
2011-02-03,0.05374096043746854
2011-02-04,0.05391660612063361
2011-02-07,0.053951134254897275
2011-02-08,0.05379748180802301
2011-02-09,0.05369051882167367
2011-02-10,0.05429833890616687
2011-02-11,0.054362743270044284
2011-02-14,0.054286833036434466
2011-02-15,0.05404491639087066
2011-02-16,0.05372027950567862
2011-02-17,0.05358311668379349
2011-02-18,0.05412717977799588
2011-02-21,0.05454666693684482
2011-02-22,0.054550476441357035
2011-02-23,0.05475401383845916
2011-02-24,0.0542787271355902
2011-02-25,0.051665960910997344
2011-02-28,0.04860410655953485
2011-03-01,0.045453813233207
2011-03-02,0.0425642551445699
2011-03-03,0.04004537977665472
2011-03-04,0.03820642407801994
2011-03-07,0.03567739378634678
2011-03-08,0.03413615137281785
2011-03-09,0.032604997703129336
2011-03-10,0.031026069295569985
2011-03-11,0.029417064345703816
2011-03-14,0.027844416892273526
2011-03-15,0.027362672828492557
2011-03-16,0.02617962476920702
2011-03-17,0.025081080142742414
2011-03-18,0.024232431561051475
2011-03-21,0.0242301150209762
2011-03-22,0.02284224966224128
2011-03-23,0.021860660400591037
2011-03-24,0.020834898943346218
2011-03-25,0.020068120447351442
2011-03-27,0.019456111843938466
2011-03-28,0.01887353242648713
2011-03-29,0.020182565824651874
2011-03-30,0.021419525408655042
2011-03-31,0.022260987879496822
2011-04-03,0.022478060173825993
2011-04-04,0.021486770161377948
2011-04-05,0.020637715149825556
2011-04-06,0.02077787835341333
2011-04-07,0.022779458471078255
2011-04-10,0.023223782866011868
2011-04-11,0.0228506555184313
2011-04-12,0.02251132298139349
2011-04-13,0.021853371339852767
2011-04-14,0.021853371339852767
2011-04-17,0.021853371339852767
2011-04-18,0.021447662696882336
2011-04-19,0.022132778153714224
2011-04-20,0.021953523170894062
2011-04-21,0.021034108492936344
2011-04-24,0.020194700968323
2011-04-25,0.019035576782388933
2011-04-26,0.019180645536115194
2011-04-27,0.02000941904886062
2011-04-28,0.01971661521142302
2011-05-01,0.019768858381045962
2011-05-02,0.020569918944611333
2011-05-03,0.02121577205307931
2011-05-04,0.022164517443759933
2011-05-05,0.022016993925461057
2011-05-08,0.022352411430518658
2011-05-09,0.021640117691157305
2011-05-10,0.021391834652861777
2011-05-11,0.021325733382300743
2011-05-12,0.021819091693122118
2011-05-15,0.02160385010302753
2011-05-16,0.02080169664421549
2011-05-17,0.0208749812580047
2011-05-18,0.020481188325572105
2011-05-19,0.019773204687394286
2011-05-22,0.019862767648149225
2011-05-23,0.01991650501129771
2011-05-24,0.019798848896548576
2011-05-25,0.01917383539741901
2011-05-26,0.02011946272251504
2011-05-29,0.021038927431025815
2011-05-30,0.02081156991488636
2011-05-31,0.020933743054323346
2011-06-01,0.02045417814347228
2011-06-02,0.0226677076347512
2011-06-05,0.02197719079042866
2011-06-06,0.022166342601707065
2011-06-07,0.021282327724996067
2011-06-08,0.0206930180152077
2011-06-09,0.0205063738134214
2011-06-12,0.020002336063944005
2011-06-13,0.019879932784527557
2011-06-14,0.019608272729247957
2011-06-15,0.020555931814084213
2011-06-16,0.019797931235921655
2011-06-19,0.019546846988615123
2011-06-20,0.019191883454994677
2011-06-21,0.018690341258670824
2011-06-22,0.0176010373938433
2011-06-23,0.01697725916216579
2011-06-26,0.01660619798328098
2011-06-27,0.01654843070643234
2011-06-28,0.017569381952136316
2011-06-29,0.01798698729321171
2011-06-30,0.018195584974003472
2011-07-03,0.017601654242407942
2011-07-04,0.017429734181589735
2011-07-05,0.017492021623331227
2011-07-06,0.017342311191228053
2011-07-07,0.01760402971364919
2011-07-10,0.0189416156386693
2011-07-11,0.019031635187756555
2011-07-12,0.018800482324729553
2011-07-13,0.01816391073873329
2011-07-14,0.017551467716594056
2011-07-17,0.017218849299521537
2011-07-18,0.016559677855578474
2011-07-19,0.016319470020573476
2011-07-20,0.01616079484932322
2011-07-21,0.01598487801738795
2011-07-24,0.016114629424669083
2011-07-25,0.017014227217939156
2011-07-26,0.018342663772540662
2011-07-27,0.01946173435070254
2011-07-28,0.019821816456861728
2011-07-31,0.01984169727059174
2011-08-01,0.020281793116584693
2011-08-02,0.019446996966894257
2011-08-03,0.020551252545305394
2011-08-04,0.02138363466576647
2011-08-07,0.022099351799334113
2011-08-08,0.02493607835993594
2011-08-09,0.0261124447313781
2011-08-10,0.025582828890004333
2011-08-11,0.025241105086414372
2011-08-14,0.025816886207006527
2011-08-15,0.026773047685729252
2011-08-16,0.02588906559802703
2011-08-17,0.025832692342690106
2011-08-18,0.025487435047406148
2011-08-21,0.02533116237388802
2011-08-22,0.024478798156745828
2011-08-23,0.02350159387965445
2011-08-24,0.02312999945992109
2011-08-25,0.022434909177511533
2011-08-28,0.022046654532371517
2011-08-29,0.021757575391260227
2011-08-30,0.021653452030491665
2011-08-31,0.021871083624483784
2011-09-01,0.024266221082195904
2011-09-04,0.02645453043155249
2011-09-05,0.026929243547880965
2011-09-06,0.025484193790825612
2011-09-07,0.02454954618487442
2011-09-08,0.024646013145861706
2011-09-11,0.026228531783199206
2011-09-12,0.02730512271588826
2011-09-13,0.027504766706872446
2011-09-14,0.026732962120324076
2011-09-15,0.02655202851894339
2011-09-18,0.03056275713711242
2011-09-19,0.034551278661998024
2011-09-20,0.037340568524249745
2011-09-21,0.04635224293359625
2011-09-22,0.04901287554032853
2011-09-25,0.05026913314687451
2011-09-26,0.051242791272933644
2011-09-27,0.051104017188220524
2011-09-28,0.04991084692046387
2011-09-29,0.049524349979247324
2011-10-02,0.05050834359894164
2011-10-03,0.05062917832203073
2011-10-04,0.051277104726828865
2011-10-05,0.05130016902431974
2011-10-06,0.053535902687329696
2011-10-09,0.05491192761239343
2011-10-10,0.053082482021519245
2011-10-11,0.051262284233435866
2011-10-12,0.05000067930801688
2011-10-13,0.05004348834461012
2011-10-16,0.04796179183346202
2011-10-17,0.0483073810249106
2011-10-18,0.04673541301454701
2011-10-19,0.04634002351588861
2011-10-20,0.04505144176843933
2011-10-23,0.044726336761032555
2011-10-24,0.04393873672511392
2011-10-25,0.042621677032019835
2011-10-26,0.0429487017312151
2011-10-27,0.04525951944594604
2011-10-31,0.04516241049673233
2011-11-01,0.04695081688425913
2011-11-02,0.04716147360175065
2011-11-03,0.046014221539524655
2011-11-04,0.045127488596170086
2011-11-07,0.043818378383643324
2011-11-08,0.04205991794000418
2011-11-09,0.041248493154098724
2011-11-10,0.04123074360092571
2011-11-11,0.03982854453629126
2011-11-14,0.03896221815201234
2011-11-15,0.03829348701205558
2011-11-16,0.03712252158591181
2011-11-17,0.036156625602822116
2011-11-18,0.03505257923557315
2011-11-21,0.03585596756910797
2011-11-22,0.03583768414730661
2011-11-23,0.037092136809202425
2011-11-24,0.039706987140538365
2011-11-25,0.04052791749357653
2011-11-28,0.04074735217254284
2011-11-29,0.04153682773303047
2011-11-30,0.04300562698847818
2011-12-01,0.04424808317473481
2011-12-02,0.044244648659760966
2011-12-05,0.042927172867564665
2011-12-06,0.04128237377624565
2011-12-07,0.03983363195033574
2011-12-08,0.03950265806100028
2011-12-09,0.03881675357010155
2011-12-12,0.03902269983948778
2011-12-13,0.03987107878891759
2011-12-14,0.041851716812878255
2011-12-15,0.040955165277968934
2011-12-16,0.04082265342656154
2011-12-19,0.03964246351700489
2011-12-20,0.03900371593241657
2011-12-21,0.038167735991424354
2011-12-22,0.03679146878094819
2011-12-23,0.036342078046419375
2011-12-26,0.03421050057042525
2011-12-27,0.033359750354501574
2011-12-28,0.032969768111756996
2011-12-29,0.032357641709379534
2011-12-30,0.03224638156893819
2012-01-02,0.031050211273751818
2012-01-03,0.03171091056240434
2012-01-04,0.03351727433210009
2012-01-05,0.03296604038367057
2012-01-06,0.033139894661767165
2012-01-09,0.03224418780554861
2012-01-10,0.033969603131622374
2012-01-11,0.0348146315563688
2012-01-12,0.03385644350697658
2012-01-13,0.034180983281978654
2012-01-16,0.032232341476804136
2012-01-17,0.03181574562880801
2012-01-18,0.03085747802360779
2012-01-19,0.030303372418123687
2012-01-20,0.02882456002232599
2012-01-23,0.028344234282251607
2012-01-24,0.027212503209157402
2012-01-25,0.026604467239238434
2012-01-26,0.026768433871619715
2012-01-27,0.02678497430998057
2012-01-30,0.03332890494396548
2012-01-31,0.032269697413766556
2012-02-01,0.03143614757350502
2012-02-02,0.030904994160609364
2012-02-03,0.030583208855103922
2012-02-06,0.029884408205820914
2012-02-07,0.028756950451700968
2012-02-08,0.027724311112347456
2012-02-09,0.02703686030539504
2012-02-10,0.026291370270275723
2012-02-13,0.025663415240563228
2012-02-14,0.024558885563525167
2012-02-15,0.02372610801137301
2012-02-16,0.02341710029217464
2012-02-17,0.023344450270409864
2012-02-20,0.022069846665083104
2012-02-21,0.021664857613274517
2012-02-22,0.0207816534893276
2012-02-23,0.02088296395530369
2012-02-24,0.020298466524952968
2012-02-27,0.019934290341722685
2012-02-28,0.019703269601333784
2012-02-29,0.020838750351828937
2012-03-01,0.021293125329571828
2012-03-02,0.02111504494784238
2012-03-05,0.021606827454249584
2012-03-06,0.022199196924802614
2012-03-07,0.024770682870835798
2012-03-08,0.024872776951936116
2012-03-09,0.024646150025879048
2012-03-12,0.02689999646108656
2012-03-13,0.02729285385809651
2012-03-14,0.027707650012436004
2012-03-15,0.027157103581316906
2012-03-16,0.026860167610391793
2012-03-19,0.025927298492939396
2012-03-20,0.026439634316108677
2012-03-21,0.02670823186555995
2012-03-22,0.025936215302127832
2012-03-23,0.02549077135111516
2012-03-25,0.025834287683794685
2012-03-26,0.025231838562519943
2012-03-27,0.02482956437886049
2012-03-28,0.024977452637725762
2012-03-29,0.02489334887777601
2012-04-01,0.023986681099668998
2012-04-02,0.02358763244923368
2012-04-03,0.024374230132271368
2012-04-04,0.024254642265561958
2012-04-05,0.02296502495969139
2012-04-08,0.02196038031885436
2012-04-09,0.023084638868400287
2012-04-10,0.02298573609201305
2012-04-11,0.02287246922822029
2012-04-12,0.023353007140795766
2012-04-15,0.023942078059658086
2012-04-16,0.023739072483856937
2012-04-17,0.02406485302089012
2012-04-18,0.024481649233880683
2012-04-19,0.02455438857434969
2012-04-22,0.025450503676547047
2012-04-23,0.025696896271172637
2012-04-24,0.025047117965860545
2012-04-25,0.025050895254014587
2012-04-26,0.024732974164345785
2012-04-29,0.024852047438354587
2012-04-30,0.02464118690698846
2012-05-01,0.024659673556493778
2012-05-02,0.024941125445379065
2012-05-03,0.025759616485166052
2012-05-06,0.025605358164767077
2012-05-07,0.02651926115316283
2012-05-08,0.028460742499690623
2012-05-09,0.02898497517836568
2012-05-10,0.029493191237127236
2012-05-13,0.03036510614887791
2012-05-14,0.030589027138271642
2012-05-15,0.030025525199758527
2012-05-16,0.029530844828294104
2012-05-17,0.029664355912000683
2012-05-20,0.030481187632647684
2012-05-21,0.030989674230359403
2012-05-22,0.03373326892840985
2012-05-23,0.036730892576602746
2012-05-24,0.03752868596404318
2012-05-27,0.03936949410958632
2012-05-28,0.039114530244600744
2012-05-29,0.038327778084228756
2012-05-30,0.03804722250676951
2012-05-31,0.037929563756280385
2012-06-03,0.03679173777363871
2012-06-04,0.03724232793268297
2012-06-05,0.0379821616518052
2012-06-06,0.036033435819464554
2012-06-07,0.03541676183233969
2012-06-10,0.035458421701459554
2012-06-11,0.03591139157993956
2012-06-12,0.03481057789562924
2012-06-13,0.033916965188776786
2012-06-14,0.03410146767529689
2012-06-17,0.0341799342699202
2012-06-18,0.03390279610777763
2012-06-19,0.035252596385817986
2012-06-20,0.03543455378683407
2012-06-21,0.035753514230636614
2012-06-24,0.03526397749986976
2012-06-25,0.03520940767844975
2012-06-26,0.034473021415694104
2012-06-27,0.03442494845742967
2012-06-28,0.03705173785335587
2012-07-01,0.04124804229244393
2012-07-02,0.04066603927154967
2012-07-03,0.041032750752156455
2012-07-04,0.04018041141270985
2012-07-05,0.04013181059751593
2012-07-08,0.03949382412626039
2012-07-09,0.03829426526009123
2012-07-10,0.03707324631293459
2012-07-11,0.03683944300486656
2012-07-12,0.035765197075941974
2012-07-15,0.033881968713365684
2012-07-16,0.03232611380526125
2012-07-17,0.0312885342477383
2012-07-18,0.03063221037289734
2012-07-19,0.030708481060547792
2012-07-22,0.03132930384193929
2012-07-23,0.03045578213894095
2012-07-24,0.02930894055758478
2012-07-25,0.029236873374899976
2012-07-26,0.028627096705262783
2012-07-29,0.029053732654887855
2012-07-30,0.029135608893824595
2012-07-31,0.028668779687121934
2012-08-01,0.028963866852328074
2012-08-02,0.029002162077161855
2012-08-05,0.02977343621450865
2012-08-06,0.029089619342042752
2012-08-07,0.028776075103325
2012-08-08,0.027834926881657746
2012-08-09,0.026539574961537825
2012-08-12,0.02687960532142834
2012-08-13,0.0267096335127547
2012-08-14,0.026394659690414785
2012-08-15,0.026223612569670724
2012-08-16,0.026179068814694215
2012-08-19,0.026051992470787374
2012-08-20,0.025855421580016715
2012-08-21,0.025730034324301158
2012-08-22,0.02484931758685057
2012-08-23,0.024767223473504043
2012-08-26,0.0246481360825394
2012-08-27,0.025151840648072563
2012-08-28,0.025183852030353098
2012-08-29,0.024977862599613508
2012-08-30,0.02522230098535549
2012-09-02,0.025913565200687484
2012-09-03,0.02599831054349554
2012-09-04,0.025377002647531392
2012-09-05,0.024935788172707602
2012-09-06,0.02517608901751428
2012-09-09,0.025834939801977708
2012-09-10,0.02556815838755067
2012-09-11,0.025306147074154125
2012-09-12,0.02480570799742873
2012-09-13,0.02469101456904095
2012-09-16,0.025577370671252455
2012-09-17,0.025314701337591526
2012-09-18,0.025342222670620713
2012-09-19,0.02497492105129061
2012-09-20,0.023726712404769687
2012-09-23,0.023674804375857568
2012-09-24,0.023212318349010542
2012-09-25,0.02318286703836694
2012-09-26,0.02281980510705498
2012-09-27,0.021996961885122405
2012-09-30,0.021818607464756525
2012-10-01,0.021460135502988167
2012-10-02,0.021205840109917537
2012-10-03,0.021098280102066297
2012-10-04,0.021298402951918736
2012-10-07,0.0210985170267817
2012-10-08,0.02222719438201163
2012-10-09,0.022032394783296494
2012-10-10,0.021680080870203847
2012-10-11,0.021360075093760724
2012-10-14,0.021105784015634933
2012-10-15,0.021298228014518163
2012-10-16,0.021262640299195428
2012-10-17,0.021108165992110028
2012-10-18,0.021129011278387875
2012-10-21,0.020912653329931596
2012-10-22,0.021090320949222207
2012-10-23,0.020891012309992046
2012-10-24,0.02080594000213546
2012-10-25,0.020919801430554375
2012-10-29,0.02173267275694338
2012-10-30,0.020730338988590283
2012-10-31,0.020971029060833823
2012-11-01,0.019894526985059963
2012-11-02,0.01890920362898424
2012-11-05,0.01946568908405683
2012-11-06,0.019603854149481334
2012-11-07,0.01982500742451838
2012-11-08,0.019066078322767053
2012-11-09,0.019754215585426567
2012-11-12,0.020107485900753223
2012-11-13,0.0200140940506994
2012-11-14,0.02050594447564944
2012-11-15,0.020626948441674498
2012-11-16,0.020953594981554885
2012-11-19,0.022242623911443837
2012-11-20,0.022061007917769264
2012-11-21,0.022142364495071436
2012-11-22,0.02249648131685204
2012-11-23,0.02305387550850547
2012-11-26,0.024778598686469377
2012-11-27,0.02413727020886442
2012-11-28,0.02414175090823125
2012-11-29,0.024895911557643334
2012-11-30,0.024474775017811673
2012-12-03,0.02624800537368225
2012-12-04,0.02798029070413352
2012-12-05,0.02808884136812399
2012-12-06,0.029939638413258012
2012-12-07,0.029815378526596728
2012-12-10,0.029407137203268374
2012-12-11,0.029085198831606325
2012-12-12,0.028579113200777318
2012-12-13,0.02830917654357893
2012-12-14,0.027558521076180422
2012-12-17,0.02748291242788182
2012-12-18,0.02749127582589026
2012-12-19,0.02807047040975525
2012-12-20,0.029229722523344177
2012-12-21,0.028927599485962442
2012-12-24,0.028997056665536553
2012-12-25,0.02899726690371254
2012-12-26,0.030061747839161664
2012-12-27,0.0318001944220787
2012-12-28,0.03136446624907308
2012-12-31,0.03052414723128212
2013-01-01,0.029093851000476248
2013-01-02,0.028137147357585074
2013-01-03,0.027577351117757585
2013-01-04,0.027143254609346336
2013-01-07,0.02763302213725019
2013-01-08,0.027887806270303756
2013-01-09,0.027417248679567748
2013-01-10,0.027708873773884327
2013-01-11,0.028036811361464003
2013-01-14,0.027684181978502313
2013-01-15,0.027028168980037858
2013-01-16,0.027028168980037858
2013-01-17,0.027028168980037858
2013-01-18,0.02635423620942044
2013-01-21,0.02570949500011405
2013-01-22,0.025138720692793593
2013-01-23,0.02533458616933231
2013-01-24,0.02524502716506972
2013-01-25,0.02396443917974128
2013-01-28,0.02453521123193138
2013-01-29,0.026851957387626794
2013-01-30,0.026056273633967158
2013-01-31,0.02601374781498252
2013-02-01,0.025556306790250498
2013-02-04,0.025317327753766494
2013-02-05,0.025331099711199963
2013-02-06,0.02541887713648627
2013-02-07,0.0257541537401171
2013-02-08,0.027383130845538804
2013-02-11,0.02705731686405755
2013-02-12,0.02662318248102071
2013-02-13,0.026089248595591884
2013-02-14,0.025684494404786956
2013-02-15,0.024972044159211684
2013-02-18,0.024518959563356743
2013-02-19,0.024283125526922758
2013-02-20,0.02426242060580458
2013-02-21,0.024155655672829467
2013-02-22,0.023313356140328857
2013-02-25,0.022628212016136302
2013-02-26,0.021993795665881763
2013-02-27,0.021587717115975916
2013-02-28,0.02132757204482731
2013-03-01,0.020543313746404574
2013-03-04,0.020540179606338204
2013-03-05,0.021419234332348817
2013-03-06,0.020760557458646033
2013-03-07,0.020287071477857785
2013-03-08,0.02069907658052501
2013-03-11,0.021427033304160147
2013-03-12,0.021259435113616904
2013-03-13,0.020506569955540312
2013-03-14,0.019844250341376494
2013-03-15,0.019438411114760634
2013-03-18,0.02056399411976612
2013-03-19,0.020746174130182846
2013-03-20,0.020441264767149536
2013-03-21,0.01995737149544353
2013-03-22,0.0205847032714715
2013-03-25,0.02115965700908562
2013-03-26,0.020882879863311908
2013-03-27,0.020661867900879635
2013-03-28,0.020578595254194466
2013-03-29,0.019748943070192516
2013-03-31,0.018635050805426087
2013-04-01,0.018754299171648232
2013-04-02,0.018879306914766466
2013-04-03,0.018859309655893625
2013-04-04,0.020107784349596043
2013-04-07,0.021739089146878696
2013-04-08,0.02134269772320091
2013-04-09,0.021611543885787232
2013-04-10,0.021846813440993342
2013-04-11,0.021664625069449123
2013-04-14,0.022132088300408758
2013-04-15,0.02298804556808442
2013-04-16,0.023668287375414845
2013-04-17,0.024507201868751567
2013-04-18,0.02531466599019219
2013-04-21,0.025899895123998498
2013-04-22,0.02547809764059882
2013-04-23,0.02512937312866276
2013-04-24,0.025234498794028164
2013-04-25,0.0255108034394862
2013-04-28,0.025109765695341887
2013-04-29,0.024637348535057127
2013-04-30,0.024313066702655258
2013-05-01,0.024340719484425417
2013-05-02,0.0240162223184495
2013-05-05,0.02395789400858021
2013-05-06,0.023975194651763888
2013-05-07,0.02345533258294023
2013-05-08,0.022979777289153024
2013-05-09,0.023481392580786097
2013-05-12,0.023361255123109197
2013-05-13,0.023807010637899577
2013-05-14,0.024142315582296733
2013-05-15,0.0240749902817755
2013-05-16,0.024419714872658406
2013-05-19,0.024189685024941808
2013-05-20,0.024097545989357146
2013-05-21,0.024097721308830672
2013-05-22,0.024019298937427155
2013-05-23,0.024289392847849593
2013-05-26,0.024940248586340752
2013-05-27,0.02528742226971316
2013-05-28,0.026417038891527106
2013-05-29,0.027080187557549325
2013-05-30,0.02871750046436979
2013-06-02,0.02905914311799154
2013-06-03,0.030440766369794228
2013-06-04,0.03248803813987603
2013-06-05,0.032260302159724356
2013-06-06,0.03262030842300938
2013-06-09,0.033661789767648144
2013-06-10,0.03491460262477887
2013-06-11,0.0360779173384418
2013-06-12,0.0353437381657183
2013-06-13,0.036526391448969346
2013-06-16,0.03829602266330712
2013-06-17,0.04163931783637082
2013-06-18,0.039929293451885645
2013-06-19,0.04379878325335175
2013-06-20,0.04395601881737313
2013-06-23,0.04329485198354432
2013-06-24,0.04282377615387117
2013-06-25,0.042536355088004164
2013-06-26,0.04239089716651164
2013-06-27,0.042484406891564894
2013-06-30,0.042299802036735744
2013-07-01,0.043185549899501186
2013-07-02,0.043229440086723976
2013-07-03,0.041905883608853466
2013-07-04,0.041534028246312756
2013-07-07,0.0407530134867788
2013-07-08,0.03907777285905453
2013-07-09,0.03870078378023567
2013-07-10,0.03766499998041856
2013-07-11,0.03651748606321737
2013-07-14,0.03603051728827314
2013-07-15,0.03787121387569802
2013-07-16,0.03840898953572309
2013-07-17,0.0386940642824796
2013-07-18,0.038365914085920175
2013-07-21,0.03728976899790878
2013-07-22,0.03684049653996848
2013-07-23,0.03718046335210246
2013-07-24,0.037846148685473494
2013-07-25,0.03638570105104364
2013-07-28,0.035822433666680316
2013-07-29,0.03488511230412711
2013-07-30,0.03506474797098349
2013-07-31,0.03527440973129533
2013-08-01,0.03531909492882125
2013-08-04,0.036646307352296924
2013-08-05,0.03543585266183075
2013-08-06,0.03469043223270618
2013-08-07,0.03465540125500188
2013-08-08,0.03525858854151097
2013-08-11,0.03496868861831024
2013-08-12,0.03507092538844816
2013-08-13,0.0345515724293362
2013-08-14,0.03511217554698344
2013-08-15,0.03549702088276302
2013-08-18,0.03817580983665562
2013-08-19,0.037556108117709486
2013-08-20,0.0381735299067055
2013-08-21,0.039568279742835485
2013-08-22,0.04275626394733956
2013-08-25,0.04794510856360021
2013-08-26,0.04935617383525366
2013-08-27,0.05024501949578563
2013-08-28,0.049634660364512945
2013-08-29,0.0488678982148256
2013-09-01,0.05212733680029323
2013-09-02,0.051275383505783874
2013-09-03,0.05020571247899878
2013-09-04,0.050648161885835485
2013-09-05,0.052494722906749954
2013-09-08,0.0610808191172457
2013-09-09,0.0599679028654719
2013-09-10,0.058398766160266256
2013-09-11,0.056234567570438404
2013-09-12,0.05411781182944932
2013-09-15,0.052602253233615656
2013-09-16,0.051194948906956035
2013-09-17,0.05075959526300551
2013-09-18,0.053119624930854294
2013-09-19,0.05185393705828191
2013-09-22,0.06147151564638525
2013-09-23,0.05903783533146836
2013-09-24,0.05847798981695346
2013-09-25,0.05742956174039587
2013-09-26,0.0559488784540497
2013-09-29,0.05465967260368864
2013-09-30,0.05279112422881491
2013-10-01,0.050563186416592715
2013-10-02,0.049708672970306025
2013-10-03,0.04750805315960191
2013-10-06,0.046193192046069496
2013-10-07,0.046193192046069496
2013-10-08,0.046193192046069496
2013-10-09,0.045112596160400746
2013-10-10,0.04475492726214758
2013-10-13,0.043562323330835026
2013-10-14,0.0422841039508197
2013-10-15,0.04139338870247733
2013-10-16,0.04005416853895763
2013-10-17,0.03962978555366146
2013-10-20,0.03846001675682017
2013-10-21,0.03857838468267716
2013-10-22,0.0367911617186894
2013-10-23,0.03670816153695977
2013-10-24,0.035874681098329246
2013-10-28,0.035853972443099014
2013-10-29,0.03498633813279788
2013-10-30,0.03326650542208763
2013-10-31,0.033902821710132106
2013-11-01,0.036987457284482585
2013-11-04,0.03630649852528594
2013-11-05,0.03742220232212237
2013-11-06,0.03856347029945079
2013-11-07,0.038139474398363404
2013-11-08,0.03953135074510068
2013-11-11,0.039455789803879454
2013-11-12,0.03917381655273421
2013-11-13,0.03841646955915611
2013-11-14,0.037715518597972966
2013-11-15,0.03745964418795866
2013-11-18,0.038640086114883114
2013-11-19,0.04083678811302812
2013-11-20,0.038608066122949335
2013-11-21,0.03929558202833465
2013-11-22,0.03960704548029688
2013-11-25,0.039642682026771334
2013-11-26,0.038888413306010144
2013-11-27,0.038261356541858825
2013-11-28,0.03863915714703982
2013-11-29,0.03847057798702514
2013-12-02,0.03845109034958711
2013-12-03,0.03772041969611689
2013-12-04,0.037143431595702214
2013-12-05,0.037003692793840776
2013-12-06,0.038634854100971276
2013-12-09,0.04003317913130978
2013-12-10,0.03934862039672886
2013-12-11,0.03985477395663595
2013-12-12,0.03993695023692505
2013-12-13,0.03865029586022363
2013-12-16,0.03786504690252803
2013-12-17,0.03605379318479
2013-12-18,0.03590659504411306
2013-12-19,0.036393369402264425
2013-12-20,0.03784809199652194
2013-12-23,0.03744355968612716
2013-12-24,0.03790589837600476
2013-12-25,0.035313700740809424
2013-12-26,0.03310793222451947
2013-12-27,0.03226996165031318
2013-12-30,0.033724831330807045
2013-12-31,0.033193562546196216
2014-01-01,0.03167013428025762
2014-01-02,0.03373250218255085
2014-01-03,0.03332246694764829
2014-01-06,0.03267717089614709
2014-01-07,0.03243565451244454
2014-01-08,0.03229008837643884
2014-01-09,0.03218354322360816
2014-01-10,0.03236346304348535
2014-01-13,0.03378877331518203
2014-01-14,0.03328201244273
2014-01-15,0.03331189168739552
2014-01-16,0.033318189638112186
2014-01-17,0.032401996812121275
2014-01-20,0.033095138345415345
2014-01-21,0.032659522122183336
2014-01-22,0.03244086867937185
2014-01-23,0.03228787402250109
2014-01-24,0.03427536476624218
2014-01-27,0.03409847776590768
2014-01-28,0.0339699643147663
2014-01-29,0.033571963766501366
2014-01-30,0.033559676456189264
2014-01-31,0.03456287392192734
2014-02-03,0.03396535034231945
2014-02-04,0.03377491625445443
2014-02-05,0.03499130161551812
2014-02-06,0.034941911317767554
2014-02-07,0.034624562662811234
2014-02-10,0.033894088690512005
2014-02-11,0.034223144291099586
2014-02-12,0.033421350991690385
2014-02-13,0.03306262484469156
2014-02-14,0.03414402889627857
2014-02-17,0.033262189144552395
2014-02-18,0.033022001566754625
2014-02-19,0.03262752528592774
2014-02-20,0.032504116795789684
2014-02-21,0.03307531073649349
2014-02-24,0.03389858236063462
2014-02-25,0.033020033380375714
2014-02-26,0.03271143386146476
2014-02-27,0.031653392461425546
2014-02-28,0.03184959280609905
2014-03-03,0.031010280200118933
2014-03-04,0.03020235300804797
2014-03-05,0.029394995650674063
2014-03-06,0.030181109367452056
2014-03-07,0.030725342826811112
2014-03-10,0.03138784884285034
2014-03-11,0.031002986042477542
2014-03-12,0.03073847653835871
2014-03-13,0.03021428031853681
2014-03-14,0.029527522501450455
2014-03-17,0.02968270439827785
2014-03-18,0.028698196454174558
2014-03-19,0.028062593572874474
2014-03-20,0.028129552878914547
2014-03-21,0.02870602701078825
2014-03-24,0.028227014570006467
2014-03-25,0.02823937092392877
2014-03-26,0.028443705438450373
2014-03-27,0.03001203974782085
2014-03-28,0.031311200961141386
2014-03-30,0.030981824474100323
2014-03-31,0.030461686837647464
2014-04-01,0.030485852379189514
2014-04-02,0.030708294193038898
2014-04-03,0.03167914125673738
2014-04-06,0.03379493900928513
2014-04-07,0.034316734147435725
2014-04-08,0.03405839366439208
2014-04-09,0.03403993681952729
2014-04-10,0.03410137038152513
2014-04-13,0.033294123811560494
2014-04-14,0.033608831363519935
2014-04-15,0.03292248199324231
2014-04-16,0.03235658715094765
2014-04-17,0.031088252688984394
2014-04-20,0.02949622670431503
2014-04-21,0.029425067324648037
2014-04-22,0.029037560850295588
2014-04-23,0.02909202100690367
2014-04-24,0.030099737526529634
2014-04-27,0.03034261425325691
2014-04-28,0.03087528636579361
2014-04-29,0.03128419569578851
2014-04-30,0.030613894156455025
2014-05-01,0.030348615323746983
2014-05-04,0.030352285666484336
2014-05-05,0.03014140765369779
2014-05-06,0.030424164829049735
2014-05-07,0.030251009869054744
2014-05-08,0.02975450828720863
2014-05-11,0.02924347114286378
2014-05-12,0.028783222503182535
2014-05-13,0.0281415628455801
2014-05-14,0.028952880850522344
2014-05-15,0.028334817179019076
2014-05-18,0.027632329442294927
2014-05-19,0.027772877487037703
2014-05-20,0.026796242427385875
2014-05-21,0.02683222514376285
2014-05-22,0.02656563740909063
2014-05-25,0.025860948471916646
2014-05-26,0.02648516689126917
2014-05-27,0.026357654884526016
2014-05-28,0.02577496488525699
2014-05-29,0.026362467734862643
2014-06-01,0.027915149448788902
2014-06-02,0.02859263911334371
2014-06-03,0.028386021937684875
2014-06-04,0.02812987740289901
2014-06-05,0.028913457902765387
2014-06-08,0.029312496772649205
2014-06-09,0.02977589002061318
2014-06-10,0.029741897865365036
2014-06-11,0.02883176203209065
2014-06-12,0.028758064723672847
2014-06-15,0.028525345754988798
2014-06-16,0.02930210695798673
2014-06-17,0.029301956460954313
2014-06-18,0.031123245660196027
2014-06-19,0.031400156737414094
2014-06-22,0.030785859718532812
2014-06-23,0.03052258398094715
2014-06-24,0.030178113643859455
2014-06-25,0.03032253411839934
2014-06-26,0.030128067369987025
2014-06-29,0.030211776853819722
2014-06-30,0.029860935610044124
2014-07-01,0.03003515451345349
2014-07-02,0.030918357849167584
2014-07-03,0.030874189427344944
2014-07-06,0.03074031874263525
2014-07-07,0.02992315305395323
2014-07-08,0.029785784968648255
2014-07-09,0.029801086043352906
2014-07-10,0.029143865570338552
2014-07-13,0.028383589413758306
2014-07-14,0.028684761614826804
2014-07-15,0.02833585005333592
2014-07-16,0.029454717959000853
2014-07-17,0.029865095265466844
2014-07-20,0.0311747313707498
2014-07-21,0.030362250528127327
2014-07-22,0.029972089762551002
2014-07-23,0.029188369039919875
2014-07-24,0.029210628394878695
2014-07-27,0.02852415491898914
2014-07-28,0.028201000987849705
2014-07-29,0.02941521523215204
2014-07-30,0.030478414167841524
2014-07-31,0.03106567031086579
2014-08-03,0.03058955099379543
2014-08-04,0.03014029734336328
2014-08-05,0.03075170468611304
2014-08-06,0.030812297209466013
2014-08-07,0.030997133125716878
2014-08-10,0.031047337903117558
2014-08-11,0.030622528047660573
2014-08-12,0.030292347469049977
2014-08-13,0.02950003692712881
2014-08-14,0.029571462861609957
2014-08-17,0.029073501224076204
2014-08-18,0.028589679703955245
2014-08-19,0.028526131153170764
2014-08-20,0.02768855035037248
2014-08-21,0.02774651104002632
2014-08-24,0.027400331677835153
2014-08-25,0.02674316512555923
2014-08-26,0.027711510479013917
2014-08-27,0.0271249740132573
2014-08-28,0.026766047296337046
2014-08-31,0.026311329630327705
2014-09-01,0.026239091799297162
2014-09-02,0.02574344238319577
2014-09-03,0.02531891078291208
2014-09-04,0.025174702869378833
2014-09-07,0.02546222409386123
2014-09-08,0.02711492237749668
2014-09-09,0.02745671363713517
2014-09-10,0.027516948377485147
2014-09-11,0.02994430921310416
2014-09-14,0.031548287129791415
2014-09-15,0.034373409483122064
2014-09-16,0.03404673737659866
2014-09-17,0.03446482756468103
2014-09-18,0.034010197023643336
2014-09-21,0.034545182951294474
2014-09-22,0.03524195559855999
2014-09-23,0.0342461016260008
2014-09-24,0.03595709436896862
2014-09-25,0.03772444477307268
2014-09-28,0.040279841577530236
2014-09-29,0.0401098528932644
2014-09-30,0.0411662919732203
2014-10-01,0.04238298540467062
2014-10-02,0.04128420073209831
2014-10-05,0.04706390068376255
2014-10-06,0.04868790777881194
2014-10-07,0.04907448579483929
2014-10-08,0.04824059395189369
2014-10-09,0.048123408669555896
2014-10-12,0.04820030805033824
2014-10-13,0.045936000331463146
2014-10-14,0.0472834288797649
2014-10-15,0.051248898246996605
2014-10-16,0.0504739769433674
2014-10-19,0.05016869287588439
2014-10-20,0.05129950052794957
2014-10-21,0.049756679061233364
2014-10-22,0.04869548769943945
2014-10-23,0.04855295286373063
2014-10-27,0.051177741945483975
2014-10-28,0.05115076037794374
2014-10-29,0.05463284892305265
2014-10-30,0.055694788285883284
2014-10-31,0.056288017694133836
2014-11-03,0.05937458785931855
2014-11-04,0.06329068872707558
2014-11-05,0.061119925246279086
2014-11-06,0.060532787728614625
2014-11-07,0.062194731462477164
2014-11-10,0.06040225064353636
2014-11-11,0.05840208988308436
2014-11-12,0.056244797748378636
2014-11-13,0.05456302648049276
2014-11-14,0.05508709601764226
2014-11-17,0.05378801773057154
2014-11-18,0.051574587892521215
2014-11-19,0.05053354590013173
2014-11-20,0.048866864050023426
2014-11-21,0.04930494518933162
2014-11-24,0.05079030624731251
2014-11-25,0.0495552843724458
2014-11-26,0.0494727640601246
2014-11-27,0.04853899519864888
2014-11-28,0.05085049554169048
2014-12-01,0.05064688871727683
2014-12-02,0.05031496809460333
2014-12-03,0.049292470373529094
2014-12-04,0.04911443677541485
2014-12-05,0.04949197700575226
2014-12-08,0.04761397864815274
2014-12-09,0.04637012303039936
2014-12-10,0.04507225709962926
2014-12-11,0.04608138159253257
2014-12-12,0.0465398543359314
2014-12-15,0.047401293311950816
2014-12-16,0.05152977236116172
2014-12-17,0.051899074335369826
2014-12-18,0.05406342616858686
2014-12-19,0.055966038585140196
2014-12-22,0.053789892971890615
2014-12-23,0.05464061490247905
2014-12-24,0.05306628526657191
2014-12-25,0.050718693461794924
2014-12-26,0.04741735821449531
2014-12-29,0.04710183262774309
2014-12-30,0.04778027315433792
2014-12-31,0.048788825071892195
2015-01-01,0.045418194709592546
2015-01-02,0.04585975223033858
2015-01-05,0.04699119849960638
2015-01-06,0.04577039860677108
2015-01-07,0.045579655849143655
2015-01-08,0.04517396614563158
2015-01-09,0.045875825706660794
2015-01-12,0.04606326672761432
2015-01-13,0.0465301762470721
2015-01-14,0.04822087794371537
2015-01-15,0.04810510094773536
2015-01-16,0.046769022308607626
2015-01-19,0.04627123500084863
2015-01-20,0.045537575357929044
2015-01-21,0.04696346283236594
2015-01-22,0.04829464405862835
2015-01-23,0.047023598054438114
2015-01-26,0.04601476962197642
2015-01-27,0.045042286077547886
2015-01-28,0.04464640850057955
2015-01-29,0.04370023646482246
2015-01-30,0.04860021957448463
2015-02-02,0.052893061033455396
2015-02-03,0.0524506995310652
2015-02-04,0.05172564956455976
2015-02-05,0.052709531738520776
2015-02-06,0.0518588509000542
2015-02-09,0.05174036155005022
2015-02-10,0.05381605001076259
2015-02-11,0.0573720464385679
2015-02-12,0.056352614550098046
2015-02-13,0.056113142082233745
2015-02-16,0.05343363193350117
2015-02-17,0.05103837250967834
2015-02-18,0.050107060187558
2015-02-19,0.049713698745589376
2015-02-20,0.049505577406618595
2015-02-23,0.04867660759185979
2015-02-24,0.0472568499067264
2015-02-25,0.047545646341960325
2015-02-26,0.04764952874610605
2015-02-27,0.04865313383567019
2015-03-02,0.05024933856169418
2015-03-03,0.05213867152157365
2015-03-04,0.05582876641289074
2015-03-05,0.05674814024054159
2015-03-06,0.05953041593764637
2015-03-09,0.0626139576563865
2015-03-10,0.06592724639521665
2015-03-11,0.06528958593841534
2015-03-12,0.06471890122852846
2015-03-13,0.0704604082836344
2015-03-16,0.07146323626337492
2015-03-17,0.07077300510170521
2015-03-18,0.07004636188015476
2015-03-19,0.07070733603157238
2015-03-20,0.07310681202931743
2015-03-23,0.07737061117008087
2015-03-24,0.08141556751507546
2015-03-25,0.07955731269256992
2015-03-26,0.07956750464310063
2015-03-27,0.07852696859716479
2015-03-29,0.08045361369736745
2015-03-30,0.08164264129041268
2015-03-31,0.08236102405538324
2015-04-01,0.08045666519428434
2015-04-02,0.0778740462518353
2015-04-05,0.07486161437670406
2015-04-06,0.07238578477836796
2015-04-07,0.0718296572941988
2015-04-08,0.07425611034461327
2015-04-09,0.07290210246285514
2015-04-12,0.07207338085836547
2015-04-13,0.07074671079705362
2015-04-14,0.07088623145440695
2015-04-15,0.0702872149219493
2015-04-16,0.06985955671323864
2015-04-19,0.06753387409086441
2015-04-20,0.0645743116558026
2015-04-21,0.06273328939467382
2015-04-22,0.06225948300933996
2015-04-23,0.061512377080101384
2015-04-26,0.062182921574379865
2015-04-27,0.06262699860478131
2015-04-28,0.061139355847296906
2015-04-29,0.06244368757249001
2015-04-30,0.06711199560302647
2015-05-03,0.0685254244885246
2015-05-04,0.06901646559648714
2015-05-05,0.06862957519673805
2015-05-06,0.06733460553982817
2015-05-07,0.06698213371555471
2015-05-10,0.0684976955930151
2015-05-11,0.07086928876494263
2015-05-12,0.0711857681388753
2015-05-13,0.06937249898609847
2015-05-14,0.06928874905852002
2015-05-17,0.0669181241257686
2015-05-18,0.06583111525964225
2015-05-19,0.06364317845538209
2015-05-20,0.06283295142285478
2015-05-21,0.0632020263212223
2015-05-24,0.06526616729827785
2015-05-25,0.06568286963411514
2015-05-26,0.06719123608882122
2015-05-27,0.06641329065390543
2015-05-28,0.06556234132148361
2015-05-31,0.0645364597985205
2015-06-01,0.06326242695576903
2015-06-02,0.06382939645892839
2015-06-03,0.060248725283290644
2015-06-04,0.06166667347734134
2015-06-07,0.0601261968003884
2015-06-08,0.05989575417178924
2015-06-09,0.05907462887380429
2015-06-10,0.0598907268113897
2015-06-11,0.058377103467718995
2015-06-14,0.057514453220024776
2015-06-15,0.056313420847165875
2015-06-16,0.056441033643796885
2015-06-17,0.056573816954954254
2015-06-18,0.05603997288674325
2015-06-21,0.054987117680547315
2015-06-22,0.05404518070336535
2015-06-23,0.05271338208169641
2015-06-24,0.052448140504432375
2015-06-25,0.05162327332554436
2015-06-28,0.05121446808800548
2015-06-29,0.0515705775102908
2015-06-30,0.05007267911669858
2015-07-01,0.050388916322648684
2015-07-02,0.051068279442459515
2015-07-05,0.05202768805371242
2015-07-06,0.05310428176416153
2015-07-07,0.05665397592386426
2015-07-08,0.05654297764358824
2015-07-09,0.056618479240474785
2015-07-12,0.05801715929472659
2015-07-13,0.057087362202246146
2015-07-14,0.055973979187800005
2015-07-15,0.053532980674385736
2015-07-16,0.05431633919764391
2015-07-19,0.05544374354066935
2015-07-20,0.05362633328776438
2015-07-21,0.05497445233863837
2015-07-22,0.05978342002873563
2015-07-23,0.06370603288382591
2015-07-26,0.06569131624926694
2015-07-27,0.06527765080289072
2015-07-28,0.06379353288839854
2015-07-29,0.06387256625351291
2015-07-30,0.06548881152111914
2015-08-02,0.06695389641246777
2015-08-03,0.06640004666872008
2015-08-04,0.06497147190666863
2015-08-05,0.06723065248476373
2015-08-06,0.06808560587870918
2015-08-09,0.0682652054588014
2015-08-10,0.07146054792602986
2015-08-11,0.07099908021702772
2015-08-12,0.07111343163009717
2015-08-13,0.07049818651366166
2015-08-16,0.06979117319125724
2015-08-17,0.06769894653473885
2015-08-18,0.0663847360679718
2015-08-19,0.06580011206311669
2015-08-20,0.06515724691575124
2015-08-23,0.06891744356462615
2015-08-24,0.06797334045286713
2015-08-25,0.07038238756337663
2015-08-26,0.07035507416599257
2015-08-27,0.06945828315413595
2015-08-30,0.07355412007169769
2015-08-31,0.07508596863800501
2015-09-01,0.07908697087814752
2015-09-02,0.081909330101137
2015-09-03,0.0826229493796272
2015-09-06,0.08427845299536815
2015-09-07,0.08264427778141327
2015-09-08,0.08189825793988374
2015-09-09,0.08536266808703492
2015-09-10,0.08714390608081812
2015-09-13,0.08449076993218825
2015-09-14,0.08436285779417481
2015-09-15,0.08192979652316233
2015-09-16,0.08293481105722218
2015-09-17,0.08351089598170633
2015-09-20,0.08480297484015586
2015-09-21,0.08480297484015586
2015-09-22,0.08480297484015586
2015-09-23,0.09369767476967092
2015-09-24,0.10983617890319003
2015-09-27,0.10935157404274985
2015-09-28,0.11471107611373635
2015-09-29,0.11776500149455081
2015-09-30,0.11790876858746797
2015-10-01,0.11586171176315632
2015-10-04,0.11580281954760628
2015-10-05,0.11540291459898261
2015-10-06,0.11598369401912223
2015-10-07,0.11372577768679618
2015-10-08,0.11724456264903721
2015-10-11,0.11171499690707812
2015-10-12,0.11161624849896429
2015-10-13,0.11296178873685908
2015-10-14,0.11279313415484775
2015-10-15,0.10930739775282458
2015-10-18,0.11118945432687179
2015-10-19,0.10866957962500455
2015-10-20,0.10709387636465187
2015-10-21,0.10333510040362744
2015-10-22,0.10126238531518986
2015-10-26,0.09953610937803589
2015-10-27,0.09603054993882834
2015-10-28,0.09241454109469008
2015-10-29,0.09071512847627003
2015-10-30,0.08936751862330387
2015-11-02,0.0843691022121991
2015-11-03,0.08513358700183128
2015-11-04,0.08808230524264764
2015-11-05,0.08520805263474569
2015-11-06,0.08469372094086898
2015-11-09,0.08136875425131508
2015-11-10,0.07926913541546933
2015-11-11,0.08046219449321113
2015-11-12,0.08019808427157701
2015-11-13,0.0789874743221829
2015-11-16,0.08016233923791255
2015-11-17,0.07850232304321737
2015-11-18,0.07688350843715394
2015-11-19,0.07799919263873761
2015-11-20,0.07709370104303374
2015-11-23,0.0768068040356995
2015-11-24,0.07481723325711016
2015-11-25,0.07737139215908265
2015-11-26,0.07664871426799548
2015-11-27,0.07494517009559891
2015-11-30,0.08270098493927944
2015-12-01,0.08163273185462426
2015-12-02,0.07801814963067365
2015-12-03,0.07823897640918571
2015-12-04,0.0806432147170046
2015-12-07,0.0781476452170638
2015-12-08,0.07779334970875566
2015-12-09,0.07933313992025652
2015-12-10,0.07925918361347935
2015-12-11,0.08369962428633992
2015-12-14,0.08565330918093568
2015-12-15,0.0850198285546411
2015-12-16,0.08433158680635454
2015-12-17,0.08235493876358752
2015-12-18,0.08082030684100519
2015-12-21,0.08641179834126242
2015-12-22,0.08427982517753625
2015-12-23,0.08247925939851668
2015-12-24,0.08032136470379782
2015-12-25,0.076594828794346
2015-12-28,0.07711709279490679
2015-12-29,0.07676558060483148
2015-12-30,0.0819577485273465
2015-12-31,0.08295433568248352
2016-01-01,0.07750398136279484
2016-01-04,0.07978367284408254
2016-01-05,0.08151440057713845
2016-01-06,0.07886910964834952
2016-01-07,0.0768274519006858
2016-01-08,0.07428146778907298
2016-01-11,0.0728679046060175
2016-01-12,0.0718555115977294
2016-01-13,0.07269471137669137
2016-01-14,0.0710731083685478
2016-01-15,0.0697674734987748
2016-01-18,0.06781207982926515
2016-01-19,0.06708244662638937
2016-01-20,0.06636923416160041
2016-01-21,0.0693792821957772
2016-01-22,0.06832338868740329
2016-01-25,0.06812167717978174
2016-01-26,0.06767004380236405
2016-01-27,0.067186384712196
2016-01-28,0.06853043250602193
2016-01-29,0.07102863523783848
2016-02-01,0.07341263775925973
2016-02-02,0.07256876826575086
2016-02-03,0.07109224951881309
2016-02-04,0.07675057994837906
2016-02-05,0.07535396465053186
2016-02-08,0.07175690538857422
2016-02-09,0.06757389404597403
2016-02-10,0.06791864461718228
2016-02-11,0.06984603336896546
2016-02-12,0.07000704254980203
2016-02-15,0.06755637606632932
2016-02-16,0.06930960063867476
2016-02-17,0.07077328476421302
2016-02-18,0.07233956234692314
2016-02-19,0.072893906809076
2016-02-22,0.0742515474037397
2016-02-23,0.07473360034175679
2016-02-24,0.07375973308320743
2016-02-25,0.07125537411257389
2016-02-26,0.0701513810277208
2016-02-29,0.06836908287327338
2016-03-01,0.06701410838924035
2016-03-02,0.0709346366703806
2016-03-03,0.07228219691763886
2016-03-04,0.08417660679745165
2016-03-07,0.08261395773549249
2016-03-08,0.07967718662744726
2016-03-09,0.081085985667186
2016-03-10,0.08345845694567494
2016-03-11,0.08393286061783092
2016-03-14,0.08244477660174568
2016-03-15,0.08932738937769662
2016-03-16,0.09666124307686426
2016-03-17,0.09952118897494926
2016-03-18,0.10199113186705841
2016-03-21,0.09789172243156853
2016-03-22,0.09535657478081318
2016-03-23,0.09555967841372423
2016-03-24,0.09859115534009084
2016-03-25,0.0938274643470488
2016-03-27,0.09021119078373574
2016-03-28,0.0897961029448384
2016-03-29,0.08919637757232075
2016-03-30,0.09033950006821741
2016-03-31,0.08963667486206353
2016-04-03,0.08831262005788248
2016-04-04,0.09064030082733006
2016-04-05,0.0904302784370173
2016-04-06,0.09047811588242897
2016-04-07,0.0888511015757136
2016-04-10,0.09524033059203
2016-04-11,0.09708031285763122
2016-04-12,0.09539599979888773
2016-04-13,0.09127484560174677
2016-04-14,0.0914409284836623
2016-04-17,0.09411658280541749
2016-04-18,0.09319396771267205
2016-04-19,0.09408725756297005
2016-04-20,0.08971673085268202
2016-04-21,0.0885798194980678
2016-04-24,0.08520268399532493
2016-04-25,0.08208105895607581
2016-04-26,0.07910383624910665
2016-04-27,0.07675355914516956
2016-04-28,0.07818544952356873
2016-05-01,0.07909363272871252
2016-05-02,0.08375123528766952
2016-05-03,0.08289043192676761
2016-05-04,0.08054825609450174
2016-05-05,0.07875909343884648
2016-05-08,0.08671916441508903
2016-05-09,0.08407493646624742
2016-05-10,0.08306244032198942
2016-05-11,0.08269369435393543
2016-05-12,0.08175842992801093
2016-05-15,0.07965425522628836
2016-05-16,0.0777789503418992
2016-05-17,0.07716616788950718
2016-05-18,0.08070430028316723
2016-05-19,0.07695399161552505
2016-05-22,0.07595727755739919
2016-05-23,0.07258889942383191
2016-05-24,0.07252540658744942
2016-05-25,0.06978073386970396
2016-05-26,0.06972496714927989
2016-05-29,0.06693746877887626
2016-05-30,0.06628479228166342
2016-05-31,0.06612159279678362
2016-06-01,0.06436290723488028
2016-06-02,0.0644226995866785
2016-06-05,0.06554964981628686
2016-06-06,0.0662103892240557
2016-06-07,0.06961679051524532
2016-06-08,0.07172987720739547
2016-06-09,0.07246345750369936
2016-06-12,0.07223749622573886
2016-06-13,0.07382767524774501
2016-06-14,0.07111855530087548
2016-06-15,0.06865294396598788
2016-06-16,0.06772059074059734
2016-06-19,0.0693691201129074
2016-06-20,0.06872132576822845
2016-06-21,0.06646980233479449
2016-06-22,0.06703624506354286
2016-06-23,0.07138365640393168
2016-06-26,0.07129196665543742
2016-06-27,0.07237111195287244
2016-06-28,0.07892317571483685
2016-06-29,0.08126437755899418
2016-06-30,0.07921692193014264
2016-07-03,0.07684428455373217
2016-07-04,0.07597683562455253
2016-07-05,0.07427134730635021
2016-07-06,0.07246625101189647
2016-07-07,0.07319723310439248
2016-07-10,0.07418314505295664
2016-07-11,0.07233434892994875
2016-07-12,0.06947475250916138
2016-07-13,0.07033369877765418
2016-07-14,0.06852414882750828
2016-07-17,0.06625813815341756
2016-07-18,0.06503255683487093
2016-07-19,0.06242308844627634
2016-07-20,0.05995001066205502
2016-07-21,0.05860358130981066
2016-07-24,0.057953325493338634
2016-07-25,0.05646380222546136
2016-07-26,0.05467353061744529
2016-07-27,0.05355399270430511
2016-07-28,0.05415727894566348
2016-07-31,0.05338890187107728
2016-08-01,0.0519682660110589
2016-08-02,0.05087767557308332
2016-08-03,0.05137212732148965
2016-08-04,0.053181261096561634
2016-08-07,0.05274688530120304
2016-08-08,0.05226496491971564
2016-08-09,0.052696038856372286
2016-08-10,0.05241775036522231
2016-08-11,0.0520879110518699
2016-08-14,0.05213163169121294
2016-08-15,0.0509365151369955
2016-08-16,0.05062676405461546
2016-08-17,0.050489138050233286
2016-08-18,0.04968991390119383
2016-08-21,0.04877634861978356
2016-08-22,0.04752803800059099
2016-08-23,0.047611749572194884
2016-08-24,0.04596091031305423
2016-08-25,0.04600655957650977
2016-08-28,0.046898948180044524
2016-08-29,0.047670451882960596
2016-08-30,0.04648684817491126
2016-08-31,0.047366359021025706
2016-09-01,0.04731876194802166
2016-09-04,0.04626027895021387
2016-09-05,0.0472702590265458
2016-09-06,0.050515240528668945
2016-09-07,0.0505284376337792
2016-09-08,0.053012120662590353
2016-09-11,0.05551839776060509
2016-09-12,0.056745655064549136
2016-09-13,0.05961382256239102
2016-09-14,0.05902712095032579
2016-09-15,0.05891089802521685
2016-09-18,0.05814583388003472
2016-09-19,0.05597827431579711
2016-09-20,0.055008397578381905
2016-09-21,0.056550654895057166
2016-09-22,0.054739893830202835
2016-09-25,0.05318704427016868
2016-09-26,0.051309398250046837
2016-09-27,0.04928015551707364
2016-09-28,0.0474101444080036
2016-09-29,0.04699513409300036
2016-10-02,0.04628119594326737
2016-10-03,0.04699682480467938
2016-10-04,0.04726133731870527
2016-10-05,0.04677124179581257
2016-10-06,0.046973295953303566
2016-10-09,0.045718060527784835
2016-10-10,0.044438199061246776
2016-10-11,0.042049756270693815
2016-10-12,0.040674773679681996
2016-10-13,0.0409694327026112
2016-10-16,0.03994304465226508
2016-10-17,0.03918997003413742
2016-10-18,0.03931925788885925
2016-10-19,0.038832168039594384
2016-10-20,0.0383012988938477
2016-10-23,0.038065491829976136
2016-10-24,0.03897509955649708
2016-10-25,0.03805544958809073
2016-10-26,0.03883006033186513
2016-10-27,0.03989934173681728
2016-10-31,0.040013674469910235
2016-11-01,0.041198412007855324
2016-11-02,0.04134138257873194
2016-11-03,0.0408455695373645
2016-11-04,0.04031374314180918
2016-11-07,0.04274847577466166
2016-11-08,0.04293787036219482
2016-11-09,0.04580659390787889
2016-11-10,0.05804898005781765
2016-11-11,0.07255262433995383
2016-11-14,0.07355600831570687
2016-11-15,0.07217343629311103
2016-11-16,0.0702039051292574
2016-11-17,0.07074648333432577
2016-11-18,0.07151459166760836
2016-11-21,0.07324212083424989
2016-11-22,0.07232482648892555
2016-11-23,0.07158019602541522
2016-11-24,0.07176018202360337
2016-11-25,0.07196302616477827
2016-11-28,0.06935138143867872
2016-11-29,0.06756913990731667
2016-11-30,0.06812848705680218
2016-12-01,0.0699907379813414
2016-12-02,0.07720568526847876
2016-12-05,0.08105527917791787
2016-12-06,0.07940847352233452
2016-12-07,0.07773643969929388
2016-12-08,0.07538383686360813
2016-12-09,0.0741349913733396
2016-12-12,0.0737753491323839
2016-12-13,0.07274853848006309
2016-12-14,0.07076650001718776
2016-12-15,0.07088317858738939
2016-12-16,0.07024866583114349
2016-12-19,0.06775947541461946
2016-12-20,0.06588379859927986
2016-12-21,0.06397067012789358
2016-12-22,0.06212276511875013
2016-12-23,0.062392567610269095
2016-12-26,0.059135955638094595
2016-12-27,0.056369101663935155
2016-12-28,0.05522130868793602
2016-12-29,0.05429121521022344
2016-12-30,0.05275612840948886
2017-01-02,0.05163069066595097
2017-01-03,0.05095706990409567
2017-01-04,0.051974422053805425
2017-01-05,0.052811963335678225
2017-01-06,0.05080396595455442
2017-01-09,0.04938225410065508
2017-01-10,0.048912093093464656
2017-01-11,0.047861229301072686
2017-01-12,0.047342570065281024
2017-01-13,0.046768100774903024
2017-01-16,0.04657037929098114
2017-01-17,0.04713678077019743
2017-01-18,0.048055582143755764
2017-01-19,0.04708732627634366
2017-01-20,0.04698108868517615
2017-01-23,0.0464681537790917
2017-01-24,0.04520614279486984
2017-01-25,0.04281998973809164
2017-01-26,0.0425828476139421
2017-01-27,0.04209121564151736
2017-01-30,0.04321327166712392
2017-01-31,0.04224803797661454
2017-02-01,0.04171603526399892
2017-02-02,0.041757747030856156
2017-02-03,0.04098933652865182
2017-02-06,0.03931152677660457
2017-02-07,0.038046417721132354
2017-02-08,0.036264530741050814
2017-02-09,0.034567064259546636
2017-02-10,0.03368370252672162
2017-02-13,0.03264915234624122
2017-02-14,0.03203135575008097
2017-02-15,0.0334576874822184
2017-02-16,0.03391785266206003
2017-02-17,0.035023720329056
2017-02-20,0.034007740305551794
2017-02-21,0.03294290171229789
2017-02-22,0.03232555158999078
2017-02-23,0.03312372647642016
2017-02-24,0.03420060315667602
2017-02-27,0.035443417216913624
2017-02-28,0.03454745884427682
2017-03-01,0.03290835464111397
2017-03-02,0.034000615023891664
2017-03-03,0.036493428236471066
2017-03-06,0.038151040505294706
2017-03-07,0.03746168046920218
2017-03-08,0.03737870329283057
2017-03-09,0.039480224486199984
2017-03-10,0.039767351308614286
2017-03-13,0.041233969072284805
2017-03-14,0.040374399852835835
2017-03-15,0.0400262284347761
2017-03-16,0.04264578354657793
2017-03-17,0.041763941864679466
2017-03-20,0.041666517445773786
2017-03-21,0.041347480485361354
2017-03-22,0.04075837473640693
2017-03-23,0.04214706225523506
2017-03-24,0.04357227209414689
2017-03-26,0.04378853837313641
2017-03-27,0.04245364277505518
2017-03-28,0.04134266829112263
2017-03-29,0.04139676341318531
2017-03-30,0.0421969945979578
2017-04-02,0.0425043521266751
2017-04-03,0.04126832697476974
2017-04-04,0.041263446476571895
2017-04-05,0.040416057442531024
2017-04-06,0.03924348191092165
2017-04-09,0.03804037606014149
2017-04-10,0.03719463491298853
2017-04-11,0.035887875276346466
2017-04-12,0.03468874132803598
2017-04-13,0.033682402661747685
2017-04-16,0.03451937390019428
2017-04-17,0.036517990050180416
2017-04-18,0.037102419332310406
2017-04-19,0.03758796080857394
2017-04-20,0.03564596360796152
2017-04-23,0.03814268049310713
2017-04-24,0.03926106045788519
2017-04-25,0.04094241328232198
2017-04-26,0.040925098047870395
2017-04-27,0.041587591044451075
2017-04-30,0.03958133454127596
2017-05-01,0.03866838207404197
2017-05-02,0.03869921192589611
2017-05-03,0.039270696788332095
2017-05-04,0.038508504160594086
2017-05-07,0.0378507538634088
2017-05-08,0.03656855715887958
2017-05-09,0.03700651736181675
2017-05-10,0.037256051835972685
2017-05-11,0.03796633384768893
2017-05-14,0.038404452858568285
2017-05-15,0.042004134797241986
2017-05-16,0.04036098231172471
2017-05-17,0.059578055003744385
2017-05-18,0.07217962250347695
2017-05-21,0.07697393518180005
2017-05-22,0.07313293981167147
2017-05-23,0.06967344411083777
2017-05-24,0.06631819810292082
2017-05-25,0.06446689823842647
2017-05-28,0.061090691221395994
2017-05-29,0.06314135613415342
2017-05-30,0.06016697355314246
2017-05-31,0.05854076115648945
2017-06-01,0.05613784964531165
2017-06-04,0.055685146099217944
2017-06-05,0.055264778520702364
2017-06-06,0.05341015148350934
2017-06-07,0.051159426377544386
2017-06-08,0.049269467350576905
2017-06-11,0.04933593396839286
2017-06-12,0.0567833672563648
2017-06-13,0.0560345553094816
2017-06-14,0.05518922993023292
2017-06-15,0.05285428493521628
2017-06-18,0.05180755029698653
2017-06-19,0.05099986813291605
2017-06-20,0.050671306123422064
2017-06-21,0.04859478425746333
2017-06-22,0.046266585381930236
2017-06-25,0.04546182928322094
2017-06-26,0.04712169862013371
2017-06-27,0.04505586300440989
2017-06-28,0.04435187278980916
2017-06-29,0.04347673901910849
2017-07-02,0.043185543374886434
2017-07-03,0.04953657599096597
2017-07-04,0.04964824913446843
2017-07-05,0.04838765991057783
2017-07-06,0.04665282705982225
2017-07-09,0.04636333941269208
2017-07-10,0.04636333941269208
2017-07-11,0.04636333941269208
2017-07-12,0.04698063380262621
2017-07-13,0.045434027618405995
2017-07-16,0.04460437692512445
2017-07-17,0.04336260045807318
2017-07-18,0.04257619868356877
2017-07-19,0.04132450739674606
2017-07-20,0.04223296484625497
2017-07-23,0.041356749667719475
2017-07-24,0.04118328884485836
2017-07-25,0.04029777348949246
2017-07-26,0.041423717887495416
2017-07-27,0.03972591128906983
2017-07-30,0.03903789401000219
2017-07-31,0.04121277506617938
2017-08-01,0.03919916729569442
2017-08-02,0.038722001206798515
2017-08-03,0.03759049475762479
2017-08-06,0.036501660223634894
2017-08-07,0.0348679170157566
2017-08-08,0.03408868309590076
2017-08-09,0.03401594956072285
2017-08-10,0.03320727792359122
2017-08-13,0.03295032051442333
2017-08-14,0.032303098096461196
2017-08-15,0.03166772296480861
2017-08-16,0.03220946664854232
2017-08-17,0.031531884043727317
2017-08-20,0.03206017226469176
2017-08-21,0.031946912408827945
2017-08-22,0.030681838234025434
2017-08-23,0.030429643141949844
2017-08-24,0.02925528213519398
2017-08-27,0.02811630517893962
2017-08-28,0.027205036957279185
2017-08-29,0.025905584489012038
2017-08-30,0.0259268171531984
2017-08-31,0.026652774659974208
2017-09-03,0.0255398309529572
2017-09-04,0.02831537355633051
2017-09-05,0.02849411730513809
2017-09-06,0.027933695929763903
2017-09-07,0.026932294893740157
2017-09-10,0.02644866448758475
2017-09-11,0.03139274266512743
2017-09-12,0.03187419485667486
2017-09-13,0.031581848922727224
2017-09-14,0.03047847722869371
2017-09-17,0.030064100917401936
2017-09-18,0.029772745120516298
2017-09-19,0.028649458242533447
2017-09-20,0.02744929325648016
2017-09-21,0.02662909093546943
2017-09-24,0.027078231163357402
2017-09-25,0.0285334509909366
2017-09-26,0.029569198085751366
2017-09-27,0.029657303832289053
2017-09-28,0.030068325206929203
2017-10-01,0.02964837280650797
2017-10-02,0.029215593727496433
2017-10-03,0.029386183871831322
2017-10-04,0.028786271385707735
2017-10-05,0.02941670102419385
2017-10-08,0.03184006917221908
2017-10-09,0.031844355089997195
2017-10-10,0.032284534618433114
2017-10-11,0.03208543322893139
2017-10-12,0.03181478504194299
2017-10-15,0.0324214131667135
2017-10-16,0.032527114099696386
2017-10-17,0.032746774967559907
2017-10-18,0.031935711545910975
2017-10-19,0.0317616166459036
2017-10-22,0.033029425079429554
2017-10-23,0.03579319004004182
2017-10-24,0.03574365015026225
2017-10-25,0.03537606525490444
2017-10-26,0.0375359069934026
2017-10-30,0.03953419209252456
2017-10-31,0.04052499823995102
2017-11-01,0.03964431826101944
2017-11-02,0.03875513559676706
2017-11-03,0.04177358034744934
2017-11-06,0.044576290384587464
2017-11-07,0.0447208804928779
2017-11-08,0.0439048967334604
2017-11-09,0.043132936919181554
2017-11-10,0.04175171134135208
2017-11-13,0.04212666510612851
2017-11-14,0.04169610798670594
2017-11-15,0.04138204538220872
2017-11-16,0.04138204538220872
2017-11-17,0.04138204538220872
2017-11-20,0.04138204538220872
2017-11-21,0.039560131080617636
2017-11-22,0.03897695613599942
2017-11-23,0.038774901842096546
2017-11-24,0.03684806973629017
2017-11-27,0.03544415120951022
2017-11-28,0.035121116735872294
2017-11-29,0.03462498042368319
2017-11-30,0.03795461828119572
2017-12-01,0.03771154350606499
2017-12-04,0.03692919523962808
2017-12-05,0.03702092205828093
2017-12-06,0.03567323397490802
2017-12-07,0.03951779978861685
2017-12-08,0.04219121059410175
2017-12-11,0.04067060433020666
2017-12-12,0.04084018215471618
2017-12-13,0.04076899769182732
2017-12-14,0.04080903018894047
2017-12-15,0.04023013651892443
2017-12-18,0.04191130401916913
2017-12-19,0.04058318677636595
2017-12-20,0.04064390275992101
2017-12-21,0.03955112138039754
2017-12-22,0.04023478691055874
2017-12-25,0.03945062946504346
2017-12-26,0.038593545649985246
2017-12-27,0.038865631222939956
2017-12-28,0.03869964309734745
2017-12-29,0.038158512123070996
2018-01-01,0.03567936517660278
2018-01-02,0.03702933890171182
2018-01-03,0.03942907103222385
2018-01-04,0.039208901930255904
2018-01-05,0.03798141508298146
2018-01-08,0.03699663202550974
2018-01-09,0.03626531978861524
2018-01-10,0.0349653717278929
2018-01-11,0.03435339726675698
2018-01-12,0.034147298733779266
2018-01-15,0.03443257069865821
2018-01-16,0.0344807042477399
2018-01-17,0.033739792900468225
2018-01-18,0.032894268511906244
2018-01-19,0.032045324537783575
2018-01-22,0.03143057609257071
2018-01-23,0.032168978352419816
2018-01-24,0.03434883526639864
2018-01-25,0.040070756730248194
2018-01-26,0.03885212210202518
